# background statistics
# cycle   tau/boxsize    a             conformal H/H0  phi(k=0)       T00(k=0)
      0   1.757390e-01   9.900990e-03   5.696651e+00   0.000000e+00   nan
      1   1.798504e-01   1.030088e-02   5.581859e+00   nan   nan
      2   1.840464e-01   1.071692e-02   5.469494e+00   -nan   nan
      3   1.883286e-01   1.114977e-02   5.359500e+00   nan   nan
      4   1.926986e-01   1.160010e-02   5.251820e+00   -nan   nan
      5   1.971583e-01   1.206863e-02   5.146399e+00   nan   nan
      6   2.017093e-01   1.255609e-02   5.043186e+00   -nan   nan
      7   2.063534e-01   1.306324e-02   4.942128e+00   nan   nan
      8   2.110925e-01   1.359088e-02   4.843177e+00   -nan   nan
      9   2.159285e-01   1.413984e-02   4.746283e+00   nan   nan
     10   2.208631e-01   1.471097e-02   4.651400e+00   -nan   nan
     11   2.258985e-01   1.530518e-02   4.558482e+00   nan   nan
     12   2.310364e-01   1.592339e-02   4.467484e+00   -nan   nan
     13   2.362790e-01   1.656658e-02   4.378363e+00   nan   nan
     14   2.416283e-01   1.723576e-02   4.291078e+00   -nan   nan
     15   2.470865e-01   1.793197e-02   4.205587e+00   nan   nan
     16   2.526556e-01   1.865631e-02   4.121850e+00   -nan   nan
     17   2.583378e-01   1.940990e-02   4.039829e+00   nan   nan
     18   2.641354e-01   2.019395e-02   3.959485e+00   -nan   nan
     19   2.700506e-01   2.100967e-02   3.880783e+00   nan   nan
     20   2.760858e-01   2.185835e-02   3.803685e+00   -nan   nan
     21   2.822433e-01   2.274131e-02   3.728158e+00   nan   nan
# background statistics
# cycle   tau/boxsize    a             conformal H/H0  phi(k=0)       T00(k=0)
      0   1.757390e-01   9.900990e-03   5.696651e+00   0.000000e+00   3.120460e-01
      1   1.798504e-01   1.030088e-02   5.581859e+00   8.136308e-10   3.120460e-01
      2   1.840464e-01   1.071692e-02   5.469494e+00   1.506514e-09   3.120460e-01
      3   1.883286e-01   1.114977e-02   5.359500e+00   2.135237e-09   3.120460e-01
      4   1.926986e-01   1.160010e-02   5.251820e+00   2.711376e-09   3.120460e-01
      5   1.971583e-01   1.206863e-02   5.146399e+00   3.241092e-09   3.120460e-01
      6   2.017093e-01   1.255609e-02   5.043186e+00   3.729419e-09   3.120460e-01
      7   2.063534e-01   1.306324e-02   4.942128e+00   4.180804e-09   3.120460e-01
      8   2.110925e-01   1.359088e-02   4.843177e+00   4.599239e-09   3.120460e-01
      9   2.159285e-01   1.413984e-02   4.746283e+00   4.988320e-09   3.120460e-01
     10   2.208631e-01   1.471097e-02   4.651400e+00   5.351297e-09   3.120460e-01
     11   2.258985e-01   1.530518e-02   4.558482e+00   5.691111e-09   3.120460e-01
     12   2.310364e-01   1.592339e-02   4.467484e+00   6.010424e-09   3.120460e-01
     13   2.362790e-01   1.656658e-02   4.378363e+00   6.311654e-09   3.120460e-01
     14   2.416283e-01   1.723576e-02   4.291078e+00   6.596993e-09   3.120460e-01
     15   2.470865e-01   1.793197e-02   4.205587e+00   6.868436e-09   3.120460e-01
     16   2.526556e-01   1.865631e-02   4.121850e+00   7.127798e-09   3.120460e-01
     17   2.583378e-01   1.940990e-02   4.039829e+00   7.376734e-09   3.120460e-01
     18   2.641354e-01   2.019395e-02   3.959485e+00   7.616756e-09   3.120460e-01
     19   2.700506e-01   2.100967e-02   3.880783e+00   7.849244e-09   3.120460e-01
     20   2.760858e-01   2.185835e-02   3.803685e+00   8.075465e-09   3.120460e-01
     21   2.822433e-01   2.274131e-02   3.728158e+00   8.296580e-09   3.120460e-01
     22   2.885256e-01   2.365994e-02   3.654166e+00   8.513659e-09   3.120460e-01
     23   2.949351e-01   2.461569e-02   3.581678e+00   8.727688e-09   3.120460e-01
     24   3.014743e-01   2.561005e-02   3.510660e+00   8.939578e-09   3.120460e-01
     25   3.081458e-01   2.664458e-02   3.441081e+00   9.150175e-09   3.120460e-01
     26   3.149521e-01   2.772090e-02   3.372911e+00   9.360266e-09   3.120460e-01
     27   3.218961e-01   2.884071e-02   3.306118e+00   9.570585e-09   3.120460e-01
     28   3.289803e-01   3.000576e-02   3.240675e+00   9.781820e-09   3.120460e-01
     29   3.362076e-01   3.121788e-02   3.176552e+00   9.994618e-09   3.120460e-01
     30   3.435808e-01   3.247897e-02   3.113721e+00   1.020959e-08   3.120460e-01
     31   3.511027e-01   3.379101e-02   3.052156e+00   1.042732e-08   3.120460e-01
     32   3.587764e-01   3.515605e-02   2.991830e+00   1.064835e-08   3.120460e-01
     33   3.666048e-01   3.657624e-02   2.932717e+00   1.087321e-08   3.120460e-01
     34   3.745910e-01   3.805381e-02   2.874791e+00   1.110241e-08   3.120460e-01
     35   3.827382e-01   3.959107e-02   2.818029e+00   1.133644e-08   3.120460e-01
     36   3.910494e-01   4.119044e-02   2.762406e+00   1.157578e-08   3.120460e-01
     37   3.995280e-01   4.285443e-02   2.707898e+00   1.182088e-08   3.120459e-01
     38   4.081772e-01   4.458564e-02   2.654484e+00   1.207221e-08   3.120459e-01
     39   4.170005e-01   4.638680e-02   2.602139e+00   1.233020e-08   3.120459e-01
     40   4.260013e-01   4.826072e-02   2.550843e+00   1.259529e-08   3.120459e-01
     41   4.351831e-01   5.021035e-02   2.500574e+00   1.286793e-08   3.120459e-01
     42   4.445494e-01   5.223875e-02   2.451312e+00   1.314854e-08   3.120459e-01
     43   4.541040e-01   5.434910e-02   2.403035e+00   1.343756e-08   3.120459e-01
     44   4.638506e-01   5.654471e-02   2.355725e+00   1.373543e-08   3.120459e-01
     45   4.737929e-01   5.882903e-02   2.309363e+00   1.404257e-08   3.120459e-01
     46   4.839347e-01   6.120563e-02   2.263928e+00   1.435943e-08   3.120459e-01
     47   4.942802e-01   6.367826e-02   2.219403e+00   1.468645e-08   3.120459e-01
     48   5.048331e-01   6.625080e-02   2.175770e+00   1.502409e-08   3.120459e-01
     49   5.155977e-01   6.892726e-02   2.133012e+00   1.537279e-08   3.120459e-01
     50   5.265781e-01   7.171187e-02   2.091112e+00   1.573303e-08   3.120459e-01
     51   5.377785e-01   7.460899e-02   2.050053e+00   1.610527e-08   3.120459e-01
     52   5.492032e-01   7.762316e-02   2.009819e+00   1.649000e-08   3.120459e-01
     53   5.608567e-01   8.075912e-02   1.970394e+00   1.688770e-08   3.120459e-01
     54   5.727433e-01   8.402179e-02   1.931764e+00   1.729889e-08   3.120458e-01
     55   5.848676e-01   8.741629e-02   1.893913e+00   1.772406e-08   3.120458e-01
     56   5.972342e-01   9.094795e-02   1.856829e+00   1.816375e-08   3.120458e-01
     57   6.098478e-01   9.462232e-02   1.820495e+00   1.861850e-08   3.120458e-01
     58   6.227131e-01   9.844517e-02   1.784901e+00   1.908884e-08   3.120458e-01
     59   6.358350e-01   1.024225e-01   1.750031e+00   1.957533e-08   3.120458e-01
     60   6.492183e-01   1.065606e-01   1.715875e+00   2.007855e-08   3.120458e-01
     61   6.628681e-01   1.108658e-01   1.682421e+00   2.059909e-08   3.120458e-01
     62   6.767893e-01   1.153451e-01   1.649657e+00   2.113752e-08   3.120458e-01
     63   6.909870e-01   1.200054e-01   1.617571e+00   2.169446e-08   3.120458e-01
     64   7.054662e-01   1.248541e-01   1.586155e+00   2.227053e-08   3.120457e-01
     65   7.202323e-01   1.298988e-01   1.555398e+00   2.286634e-08   3.120457e-01
     66   7.352904e-01   1.351474e-01   1.525292e+00   2.348253e-08   3.120457e-01
     67   7.506457e-01   1.406081e-01   1.495826e+00   2.411972e-08   3.120457e-01
     68   7.663034e-01   1.462897e-01   1.466995e+00   2.477857e-08   3.120457e-01
     69   7.822689e-01   1.522009e-01   1.438790e+00   2.545970e-08   3.120457e-01
     70   7.985474e-01   1.583512e-01   1.411205e+00   2.616375e-08   3.120457e-01
     71   8.151440e-01   1.647502e-01   1.384234e+00   2.689136e-08   3.120457e-01
     72   8.320641e-01   1.714080e-01   1.357872e+00   2.764313e-08   3.120456e-01
     73   8.493126e-01   1.783352e-01   1.332116e+00   2.841966e-08   3.120456e-01
     74   8.668946e-01   1.855426e-01   1.306961e+00   2.922154e-08   3.120456e-01
     75   8.848150e-01   1.930416e-01   1.282405e+00   3.004929e-08   3.120456e-01
     76   9.030786e-01   2.008442e-01   1.258448e+00   3.090342e-08   3.120456e-01
     77   9.216898e-01   2.089627e-01   1.235089e+00   3.178438e-08   3.120456e-01
     78   9.406531e-01   2.174098e-01   1.212329e+00   3.269254e-08   3.120455e-01
     79   9.599723e-01   2.261992e-01   1.190171e+00   3.362821e-08   3.120455e-01
     80   9.796512e-01   2.353446e-01   1.168617e+00   3.459159e-08   3.120455e-01
     81   9.996931e-01   2.448607e-01   1.147673e+00   3.558277e-08   3.120455e-01
     82   1.020101e+00   2.547627e-01   1.127345e+00   3.660172e-08   3.120455e-01
     83   1.040876e+00   2.650663e-01   1.107642e+00   3.764822e-08   3.120454e-01
     84   1.062022e+00   2.757881e-01   1.088574e+00   3.872189e-08   3.120454e-01
     85   1.083537e+00   2.869453e-01   1.070152e+00   3.982211e-08   3.120454e-01
     86   1.105423e+00   2.985557e-01   1.052391e+00   4.094804e-08   3.120454e-01
     87   1.127678e+00   3.106382e-01   1.035306e+00   4.209853e-08   3.120454e-01
     88   1.150301e+00   3.232122e-01   1.018915e+00   4.327211e-08   3.120453e-01
     89   1.173287e+00   3.362981e-01   1.003240e+00   4.446696e-08   3.120453e-01
     90   1.196633e+00   3.499174e-01   9.883030e-01   4.568084e-08   3.120453e-01
     91   1.220332e+00   3.640921e-01   9.741300e-01   4.691105e-08   3.120453e-01
     92   1.244375e+00   3.788456e-01   9.607495e-01   4.815442e-08   3.120452e-01
     93   1.268753e+00   3.942022e-01   9.481927e-01   4.940720e-08   3.120452e-01
     94   1.293454e+00   4.101872e-01   9.364939e-01   5.066510e-08   3.120452e-01
     95   1.318463e+00   4.268271e-01   9.256900e-01   5.192320e-08   3.120451e-01
     96   1.343765e+00   4.441499e-01   9.158209e-01   5.317593e-08   3.120451e-01
     97   1.369339e+00   4.621844e-01   9.069296e-01   5.441709e-08   3.120451e-01
     98   1.395164e+00   4.809610e-01   8.990617e-01   5.563979e-08   3.120451e-01
     99   1.421215e+00   5.005116e-01   8.922655e-01   5.683655e-08   3.120450e-01
    100   1.447464e+00   5.208693e-01   8.865920e-01   5.799926e-08   3.120450e-01
    101   1.473881e+00   5.420689e-01   8.820942e-01   5.911930e-08   3.120450e-01
    102   1.500433e+00   5.641467e-01   8.788273e-01   6.018760e-08   3.120449e-01
    103   1.527084e+00   5.871405e-01   8.768483e-01   6.119478e-08   3.120449e-01
    104   1.553794e+00   6.110902e-01   8.762152e-01   6.213129e-08   3.120449e-01
    105   1.580524e+00   6.360370e-01   8.769871e-01   6.298759e-08   3.120449e-01
    106   1.607231e+00   6.620241e-01   8.792236e-01   6.375435e-08   3.120448e-01
    107   1.633870e+00   6.890967e-01   8.829841e-01   6.442265e-08   3.120448e-01
    108   1.660395e+00   7.173016e-01   8.883276e-01   6.498421e-08   3.120448e-01
    109   1.686760e+00   7.466879e-01   8.953123e-01   6.543164e-08   3.120448e-01
    110   1.712920e+00   7.773063e-01   9.039950e-01   6.575859e-08   3.120448e-01
    111   1.738829e+00   8.092100e-01   9.144313e-01   6.595998e-08   3.120447e-01
    112   1.764442e+00   8.424539e-01   9.266747e-01   6.603215e-08   3.120447e-01
    113   1.789716e+00   8.770954e-01   9.407769e-01   6.597295e-08   3.120447e-01
    114   1.814612e+00   9.131941e-01   9.567877e-01   6.578182e-08   3.120447e-01
    115   1.839091e+00   9.508117e-01   9.747551e-01   6.545980e-08   3.120447e-01
    116   1.863119e+00   9.900124e-01   9.947253e-01   6.500948e-08   3.120447e-01
    117   1.886664e+00   1.030863e+00   1.016743e+00   6.443494e-08   3.120447e-01
# background statistics
# cycle   tau/boxsize    a             conformal H/H0  phi(k=0)       T00(k=0)
      0   1.757390e-01   9.900990e-03   5.696651e+00   0.000000e+00   3.120460e-01
      1   1.798504e-01   1.030088e-02   5.581859e+00   7.960558e-10   3.120460e-01
      2   1.840464e-01   1.071692e-02   5.469494e+00   1.475131e-09   3.120460e-01
      3   1.883286e-01   1.114977e-02   5.359500e+00   2.093899e-09   3.120460e-01
      4   1.926986e-01   1.160010e-02   5.251820e+00   2.663606e-09   3.120460e-01
      5   1.971583e-01   1.206863e-02   5.146399e+00   3.190065e-09   3.120460e-01
      6   2.017093e-01   1.255609e-02   5.043186e+00   3.677990e-09   3.120460e-01
      7   2.063534e-01   1.306324e-02   4.942128e+00   4.131543e-09   3.120460e-01
      8   2.110925e-01   1.359088e-02   4.843177e+00   4.554460e-09   3.120460e-01
      9   2.159285e-01   1.413984e-02   4.746283e+00   4.950114e-09   3.120460e-01
     10   2.208631e-01   1.471097e-02   4.651400e+00   5.321556e-09   3.120460e-01
     11   2.258985e-01   1.530518e-02   4.558482e+00   5.671552e-09   3.120460e-01
     12   2.310364e-01   1.592339e-02   4.467484e+00   6.002612e-09   3.120460e-01
     13   2.362790e-01   1.656658e-02   4.378363e+00   6.317018e-09   3.120460e-01
     14   2.416283e-01   1.723576e-02   4.291078e+00   6.616847e-09   3.120460e-01
     15   2.470865e-01   1.793197e-02   4.205587e+00   6.903995e-09   3.120460e-01
     16   2.526556e-01   1.865631e-02   4.121850e+00   7.180190e-09   3.120460e-01
     17   2.583378e-01   1.940990e-02   4.039829e+00   7.447014e-09   3.120460e-01
     18   2.641354e-01   2.019395e-02   3.959485e+00   7.705917e-09   3.120460e-01
     19   2.700506e-01   2.100967e-02   3.880783e+00   7.958230e-09   3.120460e-01
     20   2.760858e-01   2.185835e-02   3.803685e+00   8.205177e-09   3.120460e-01
     21   2.822433e-01   2.274131e-02   3.728158e+00   8.447888e-09   3.120460e-01
     22   2.885256e-01   2.365994e-02   3.654166e+00   8.687408e-09   3.120460e-01
     23   2.949351e-01   2.461569e-02   3.581678e+00   8.924704e-09   3.120460e-01
     24   3.014743e-01   2.561005e-02   3.510660e+00   9.160677e-09   3.120460e-01
     25   3.081458e-01   2.664458e-02   3.441081e+00   9.396169e-09   3.120460e-01
     26   3.149521e-01   2.772090e-02   3.372911e+00   9.631966e-09   3.120460e-01
     27   3.218961e-01   2.884071e-02   3.306118e+00   9.868807e-09   3.120460e-01
     28   3.289803e-01   3.000576e-02   3.240675e+00   1.010739e-08   3.120460e-01
     29   3.362076e-01   3.121788e-02   3.176552e+00   1.034838e-08   3.120460e-01
     30   3.435808e-01   3.247897e-02   3.113721e+00   1.059239e-08   3.120460e-01
     31   3.511027e-01   3.379101e-02   3.052156e+00   1.084004e-08   3.120460e-01
     32   3.587764e-01   3.515605e-02   2.991830e+00   1.109190e-08   3.120460e-01
     33   3.666048e-01   3.657624e-02   2.932717e+00   1.134853e-08   3.120460e-01
     34   3.745910e-01   3.805381e-02   2.874791e+00   1.161045e-08   3.120459e-01
     35   3.827382e-01   3.959107e-02   2.818029e+00   1.187820e-08   3.120459e-01
     36   3.910494e-01   4.119044e-02   2.762406e+00   1.215229e-08   3.120459e-01
     37   3.995280e-01   4.285443e-02   2.707898e+00   1.243322e-08   3.120459e-01
     38   4.081772e-01   4.458564e-02   2.654484e+00   1.272148e-08   3.120459e-01
     39   4.170005e-01   4.638680e-02   2.602139e+00   1.301757e-08   3.120459e-01
     40   4.260013e-01   4.826072e-02   2.550843e+00   1.332196e-08   3.120459e-01
     41   4.351831e-01   5.021035e-02   2.500574e+00   1.363515e-08   3.120459e-01
     42   4.445494e-01   5.223875e-02   2.451312e+00   1.395761e-08   3.120459e-01
     43   4.541040e-01   5.434910e-02   2.403035e+00   1.428984e-08   3.120459e-01
     44   4.638506e-01   5.654471e-02   2.355725e+00   1.463233e-08   3.120459e-01
     45   4.737929e-01   5.882903e-02   2.309363e+00   1.498556e-08   3.120459e-01
     46   4.839347e-01   6.120563e-02   2.263928e+00   1.535005e-08   3.120459e-01
     47   4.942802e-01   6.367826e-02   2.219403e+00   1.572629e-08   3.120459e-01
     48   5.048331e-01   6.625080e-02   2.175770e+00   1.611480e-08   3.120459e-01
     49   5.155977e-01   6.892726e-02   2.133012e+00   1.651610e-08   3.120459e-01
     50   5.265781e-01   7.171187e-02   2.091112e+00   1.693073e-08   3.120459e-01
     51   5.377785e-01   7.460899e-02   2.050053e+00   1.735924e-08   3.120458e-01
     52   5.492032e-01   7.762316e-02   2.009819e+00   1.780217e-08   3.120458e-01
     53   5.608567e-01   8.075912e-02   1.970394e+00   1.826010e-08   3.120458e-01
     54   5.727433e-01   8.402179e-02   1.931764e+00   1.873360e-08   3.120458e-01
     55   5.848676e-01   8.741629e-02   1.893913e+00   1.922328e-08   3.120458e-01
     56   5.972342e-01   9.094795e-02   1.856829e+00   1.972974e-08   3.120458e-01
     57   6.098478e-01   9.462232e-02   1.820495e+00   2.025360e-08   3.120458e-01
     58   6.227131e-01   9.844517e-02   1.784901e+00   2.079551e-08   3.120458e-01
     59   6.358350e-01   1.024225e-01   1.750031e+00   2.135610e-08   3.120458e-01
     60   6.492183e-01   1.065606e-01   1.715875e+00   2.193606e-08   3.120458e-01
     61   6.628681e-01   1.108658e-01   1.682421e+00   2.253605e-08   3.120458e-01
     62   6.767893e-01   1.153451e-01   1.649657e+00   2.315678e-08   3.120457e-01
     63   6.909870e-01   1.200054e-01   1.617571e+00   2.379895e-08   3.120457e-01
     64   7.054662e-01   1.248541e-01   1.586155e+00   2.446328e-08   3.120457e-01
     65   7.202323e-01   1.298988e-01   1.555398e+00   2.515050e-08   3.120457e-01
     66   7.352904e-01   1.351474e-01   1.525292e+00   2.586135e-08   3.120457e-01
     67   7.506457e-01   1.406081e-01   1.495826e+00   2.659657e-08   3.120457e-01
     68   7.663034e-01   1.462897e-01   1.466995e+00   2.735692e-08   3.120457e-01
     69   7.822689e-01   1.522009e-01   1.438790e+00   2.814316e-08   3.120456e-01
     70   7.985474e-01   1.583512e-01   1.411205e+00   2.895602e-08   3.120456e-01
     71   8.151440e-01   1.647502e-01   1.384234e+00   2.979625e-08   3.120456e-01
     72   8.320641e-01   1.714080e-01   1.357872e+00   3.066458e-08   3.120456e-01
     73   8.493126e-01   1.783352e-01   1.332116e+00   3.156171e-08   3.120456e-01
     74   8.668946e-01   1.855426e-01   1.306961e+00   3.248834e-08   3.120456e-01
     75   8.848150e-01   1.930416e-01   1.282405e+00   3.344511e-08   3.120455e-01
     76   9.030786e-01   2.008442e-01   1.258448e+00   3.443261e-08   3.120455e-01
     77   9.216898e-01   2.089627e-01   1.235089e+00   3.545139e-08   3.120455e-01
     78   9.406531e-01   2.174098e-01   1.212329e+00   3.650190e-08   3.120455e-01
     79   9.599723e-01   2.261992e-01   1.190171e+00   3.758453e-08   3.120455e-01
     80   9.796512e-01   2.353446e-01   1.168617e+00   3.869954e-08   3.120454e-01
     81   9.996931e-01   2.448607e-01   1.147673e+00   3.984706e-08   3.120454e-01
     82   1.020101e+00   2.547627e-01   1.127345e+00   4.102708e-08   3.120454e-01
     83   1.040876e+00   2.650663e-01   1.107642e+00   4.223939e-08   3.120454e-01
     84   1.062022e+00   2.757881e-01   1.088574e+00   4.348356e-08   3.120454e-01
     85   1.083537e+00   2.869453e-01   1.070152e+00   4.475894e-08   3.120453e-01
     86   1.105423e+00   2.985557e-01   1.052391e+00   4.606457e-08   3.120453e-01
     87   1.127678e+00   3.106382e-01   1.035306e+00   4.739916e-08   3.120453e-01
     88   1.150301e+00   3.232122e-01   1.018915e+00   4.876106e-08   3.120452e-01
     89   1.173287e+00   3.362981e-01   1.003240e+00   5.014819e-08   3.120452e-01
     90   1.196633e+00   3.499174e-01   9.883030e-01   5.155800e-08   3.120452e-01
     91   1.220332e+00   3.640921e-01   9.741300e-01   5.298742e-08   3.120452e-01
     92   1.244375e+00   3.788456e-01   9.607495e-01   5.443279e-08   3.120451e-01
     93   1.268753e+00   3.942022e-01   9.481927e-01   5.588985e-08   3.120451e-01
     94   1.293454e+00   4.101872e-01   9.364939e-01   5.735363e-08   3.120451e-01
     95   1.318463e+00   4.268271e-01   9.256900e-01   5.881850e-08   3.120450e-01
     96   1.343765e+00   4.441499e-01   9.158209e-01   6.027802e-08   3.120450e-01
     97   1.369339e+00   4.621844e-01   9.069296e-01   6.172505e-08   3.120450e-01
     98   1.395164e+00   4.809610e-01   8.990617e-01   6.315164e-08   3.120449e-01
     99   1.421215e+00   5.005116e-01   8.922655e-01   6.454912e-08   3.120449e-01
    100   1.447464e+00   5.208693e-01   8.865920e-01   6.590811e-08   3.120449e-01
